#Normal incidence	
#Wavelength (nm)	Transmission
192.414993	0.005509
194.001999	0.00332
195.589081	0.002546
197.176178	0.001804
198.763351	0.00155
200.350571	0.001209
201.937836	0.001141
203.525162	0.001087
205.112518	0.001057
206.699921	0.001068
208.287399	0.000935
209.874908	0.001124
211.462448	0.001273
213.050049	0.001511
214.637695	0.002025
216.225388	0.002666
217.813141	0.003227
219.400925	0.004135
220.98877	0.005308
222.57663	0.007176
224.164581	0.009629
225.752533	0.012028
227.340546	0.014967
228.928619	0.018246
230.516693	0.021578
232.104858	0.02541
233.693039	0.029489
235.281281	0.033846
236.869537	0.038511
238.457855	0.043581
240.046219	0.048853
241.634598	0.054507
243.223053	0.060491
244.811523	0.066575
246.400055	0.073131
247.988602	0.079881
249.577194	0.087003
251.165848	0.094293
252.754517	0.101855
254.343231	0.109793
255.932007	0.117776
257.520813	0.126137
259.10965	0.134775
260.698517	0.143549
262.287415	0.152629
263.876373	0.161636
265.465363	0.171003
267.054382	0.180628
268.643433	0.190231
270.232513	0.19994
271.821655	0.209772
273.410828	0.219463
275.000031	0.22926
276.589264	0.238943
278.178528	0.248778
279.767822	0.258296
281.357147	0.267434
282.946533	0.276868
284.53595	0.286009
286.125366	0.29471
287.714844	0.303884
289.304352	0.311814
290.89386	0.320532
292.483459	0.328448
294.073029	0.336518
295.662659	0.344388
297.252319	0.351802
298.84201	0.359259
300.431732	0.366324
302.021484	0.373273
303.611267	0.380208
305.20105	0.386836
306.790894	0.393245
308.380768	0.400042
309.970642	0.40624
311.560577	0.412241
313.150543	0.418443
314.740509	0.424648
316.330505	0.430411
317.920532	0.436167
319.51059	0.441623
321.100677	0.44811
322.690796	0.454085
324.280914	0.460223
325.871063	0.466276
327.461243	0.47251
329.051453	0.479147
330.641693	0.485756
332.231964	0.492724
333.822235	0.499704
335.412537	0.507103
337.002869	0.515051
338.593231	0.522673
340.183594	0.530949
341.773987	0.539874
343.36441	0.548398
344.954865	0.557787
346.545319	0.566044
348.135803	0.57545
349.726288	0.584703
351.316833	0.59343
352.907349	0.601798
354.497894	0.611055
356.088501	0.619572
357.679108	0.627876
359.269714	0.634976
360.860352	0.642211
362.450989	0.648413
364.041687	0.654455
365.632385	0.659104
367.223083	0.664449
368.813782	0.66777
370.404541	0.671538
371.9953	0.674806
373.58606	0.677589
375.176849	0.679384
376.767639	0.680098
378.358459	0.681101
379.94931	0.681634
381.540161	0.680264
383.131042	0.679574
384.721893	0.680295
386.312805	0.679871
387.903687	0.679841
389.494598	0.678912
391.08551	0.678151
392.676453	0.676759
394.267426	0.67518
395.858398	0.673558
397.449371	0.672425
399.040344	0.669996
400.631348	0.668292
402.222351	0.666679
403.813385	0.665245
405.404388	0.664947
406.995422	0.662509
408.586487	0.660629
410.177551	0.658486
411.768616	0.657348
413.35968	0.656791
414.950745	0.65485
416.54184	0.652333
418.132904	0.650638
419.72403	0.650463
421.315125	0.649536
422.90625	0.647887
424.497375	0.645656
426.088531	0.643694
427.679626	0.641912
429.270813	0.638675
430.861908	0.638683
432.453064	0.639178
434.04425	0.63867
435.635345	0.639228
437.226501	0.63954
438.817688	0.639314
440.408844	0.638468
442.000061	0.637926
443.591217	0.636291
445.182373	0.635569
446.773529	0.635061
448.364685	0.634443
449.955902	0.63443
451.547058	0.633621
453.138245	0.63256
454.729431	0.631685
456.320618	0.631781
457.911774	0.631937
459.502991	0.62999
461.094147	0.630108
462.685303	0.631453
464.276459	0.632134
465.867676	0.631242
467.458832	0.629861
469.049988	0.629098
470.641174	0.629349
472.23233	0.629805
473.823486	0.629891
475.414642	0.629298
477.005768	0.628625
478.596924	0.629802
480.18808	0.628853
481.779205	0.628495
483.3703	0.631375
484.961487	0.640272
486.552582	0.6429
488.143707	0.635839
489.734802	0.63004
491.325867	0.629831
492.916992	0.628687
494.508057	0.628147
496.099182	0.628064
497.690247	0.628536
499.281311	0.629015
500.872314	0.628627
502.463379	0.628891
504.054382	0.629063
505.645416	0.627957
507.23642	0.629609
508.827454	0.630291
510.418457	0.630104
512.009399	0.630858
513.600403	0.632078
515.191345	0.631673
516.782288	0.631885
518.37323	0.632463
519.964172	0.631618
521.555054	0.631892
523.145935	0.631959
524.736877	0.631861
526.327759	0.632448
527.918579	0.633161
529.509399	0.634005
531.10022	0.63429
532.69104	0.634662
534.28186	0.634779
535.872681	0.634982
537.463379	0.636119
539.054138	0.635595
540.644897	0.63599
542.235596	0.636946
543.826294	0.637875
545.416992	0.638065
547.00769	0.638143
548.598267	0.638085
550.188904	0.638628
551.779541	0.639203
553.370117	0.63882
554.960693	0.639177
556.55127	0.639648
558.141785	0.63974
559.7323	0.639841
561.322815	0.640357
562.913269	0.640521
564.503723	0.641043
566.094116	0.641903
567.68457	0.643323
569.274963	0.645798
570.865295	0.647098
572.455688	0.646317
574.045959	0.646158
575.636292	0.648386
577.226501	0.64936
578.816772	0.649008
580.406982	0.649187
581.997192	0.648577
583.587341	0.64704
585.177551	0.647911
586.767639	0.649407
588.357788	0.650993
589.947815	0.650571
591.537842	0.650674
593.127869	0.650979
594.717896	0.652185
596.307861	0.652679
597.897766	0.652255
599.487671	0.65191
601.077576	0.652733
602.667419	0.65433
604.257202	0.655266
605.847046	0.654962
607.436829	0.655004
609.02655	0.655117
610.616272	0.655447
612.205933	0.657152
613.795532	0.658538
615.385193	0.657905
616.974731	0.658764
618.564331	0.66005
620.15387	0.661316
621.743347	0.661596
623.332825	0.662028
624.922241	0.661356
626.511597	0.661986
628.100952	0.662263
629.690308	0.662875
631.279602	0.664735
632.868835	0.664308
634.458069	0.664496
636.047241	0.664635
637.636353	0.665807
639.225464	0.667393
640.814575	0.668225
642.403625	0.669025
643.992615	0.669177
645.581604	0.669791
647.170532	0.669567
648.759399	0.66913
650.348267	0.670885
651.937134	0.671418
653.525879	0.669011
655.114624	0.663377
656.703308	0.66404
658.291992	0.669746
659.880615	0.673038
661.469177	0.673962
663.057739	0.675326
664.64624	0.676275
666.234741	0.676764
667.82312	0.678043
669.411499	0.679776
670.999878	0.679845
672.588135	0.679971
674.176392	0.679168
675.764587	0.678892
677.352783	0.680898
678.940918	0.681985
680.528992	0.682334
682.117065	0.681419
683.705017	0.68117
685.292969	0.682323
686.88092	0.683414
688.46875	0.682752
690.056519	0.684262
691.644348	0.68632
693.232056	0.686031
694.819702	0.686664
696.407349	0.687684
697.994934	0.687845
699.582458	0.688118
701.169983	0.688295
702.757446	0.688653
704.344849	0.689285
705.932129	0.690116
707.519409	0.690369
709.106689	0.692423
710.693909	0.692676
712.281067	0.693076
713.868103	0.693758
715.4552	0.694409
717.042175	0.69501
718.629089	0.696031
720.216003	0.697127
721.802856	0.697889
723.389648	0.697129
724.976379	0.696519
726.56311	0.697777
728.149719	0.698319
729.736267	0.697848
731.322815	0.699124
732.909302	0.700161
734.495728	0.701425
736.082092	0.702224
737.668335	0.701596
739.254639	0.701864
740.84082	0.703444
742.426941	0.704808
744.013062	0.704478
745.59906	0.704801
747.185059	0.704597
748.770996	0.704602
750.356812	0.705434
751.942688	0.707118
753.528442	0.707323
755.114136	0.707715
756.699707	0.707659
758.285278	0.709583
759.870789	0.7098
761.456238	0.709942
763.041626	0.711469
764.627014	0.712657
766.21228	0.712204
767.797485	0.712449
769.382629	0.712408
770.967712	0.712542
772.552734	0.713674
774.137695	0.714371
775.722595	0.714789
777.307495	0.714652
778.892212	0.713921
780.476929	0.715686
782.061646	0.716546
783.646179	0.717588
785.230713	0.716753
786.815186	0.718428
788.399597	0.717777
789.983948	0.719462
791.568237	0.719425
793.152405	0.719617
794.736511	0.720803
796.320618	0.719622
797.904663	0.72052
799.488586	0.721379
801.072388	0.72153
802.65625	0.722826
804.23999	0.722026
805.823608	0.723788
807.407227	0.725181
808.990784	0.724432
810.574219	0.726035
812.157593	0.727628
813.740967	0.727595
815.324219	0.727691
816.907349	0.729335
818.49054	0.728303
820.073547	0.729192
821.656555	0.732083
823.239441	0.730409
824.822266	0.729729
826.404968	0.730183
827.987671	0.730499
829.570313	0.731133
831.152832	0.731113
832.735352	0.731806
834.317688	0.731735
835.900024	0.732997
837.4823	0.734462
839.064453	0.735915
840.646606	0.737508
842.228638	0.736326
843.810547	0.735529
845.392395	0.736344
846.974243	0.737355
848.555847	0.737534
850.137512	0.736649
851.719116	0.73876
853.300598	0.739483
854.882019	0.742187
856.463379	0.740296
858.044617	0.741483
859.625793	0.743044
861.206848	0.740921
862.787903	0.74343
864.368835	0.745137
865.949707	0.74249
867.530457	0.74432
869.111145	0.743268
870.691772	0.742503
872.272339	0.747707
873.852722	0.744451
875.433228	0.74181
877.013489	0.747121
878.593628	0.748225
880.173828	0.742969
881.753784	0.746495
883.333801	0.753248
884.913696	0.749661
886.493469	0.74297
888.073242	0.745882
889.652832	0.752483
891.2323	0.748852
892.811829	0.742161
894.391235	0.744331
895.97052	0.753819
897.549683	0.760449
899.128784	0.7544
900.707825	0.746248
902.286804	0.745258
903.865601	0.754854
905.444458	0.763562
907.023071	0.764267
908.601685	0.757361
910.180176	0.748475
911.758606	0.742959
913.336914	0.743253
914.915161	0.746096
916.493347	0.750758
918.071411	0.757703
919.649292	0.76191
921.227234	0.763892
922.804993	0.764058
924.38269	0.764079
925.960327	0.763175
927.537781	0.765874
929.115234	0.767216
930.692566	0.767223
932.269836	0.768114
933.846985	0.766162
935.424011	0.764021
937.000977	0.763016
938.57782	0.761544
940.154602	0.758766
941.731262	0.756009
943.307922	0.757187
944.884399	0.75881
946.460754	0.761192
948.036987	0.765015
949.613281	0.76542
951.189331	0.764839
952.76532	0.765232
954.341309	0.766276
955.917114	0.768006
957.492798	0.765765
959.068359	0.765998
960.643921	0.769992
962.21936	0.769696
963.794617	0.770758
965.369934	0.769387
966.945007	0.767982
968.52002	0.770263
970.09491	0.770137
971.6698	0.769024
973.244507	0.772358
974.819153	0.771094
976.393677	0.770624
977.968079	0.771584
979.542358	0.772073
981.116577	0.773374
982.690735	0.772928
984.264771	0.771965
985.838684	0.771234
987.412415	0.772012
988.986145	0.772746
990.559753	0.774175
992.133179	0.773254
993.706665	0.773892
995.279907	0.774485
996.853027	0.776103
998.426147	0.776708
999.999146	0.778083
1012.878723	0.780607
1016.250183	0.781536
1019.622375	0.782415
1022.995239	0.782849
1026.368652	0.783084
1029.74292	0.783514
1033.117676	0.784635
1036.493286	0.78455
1039.869385	0.786027
1043.246338	0.787907
1046.623779	0.789297
1050.001953	0.789662
1053.380859	0.789437
1056.760498	0.79023
1060.140625	0.791701
1063.521484	0.796554
1066.903076	0.792308
1070.2854	0.80602
1073.668213	0.798106
1077.051758	0.810554
1080.436035	0.803806
1083.820923	0.814692
1087.206543	0.810291
1090.592773	0.817206
1093.979736	0.813884
1097.36731	0.819117
1100.755615	0.816262
1104.144531	0.818718
1107.53418	0.81946
1110.924438	0.820011
1114.31543	0.819527
1117.707031	0.819762
1121.099365	0.822948
1124.49231	0.818668
1127.885986	0.823836
1131.280273	0.820669
1134.675293	0.826288
1138.070923	0.820841
1141.467285	0.824877
1144.864258	0.822583
1148.261963	0.82745
1151.660278	0.824083
1155.059326	0.825186
1158.458984	0.823902
1161.859253	0.828816
1165.260376	0.824793
1168.661987	0.827942
1172.064453	0.825729
1175.467529	0.830992
1178.871216	0.825705
1182.275635	0.830791
1185.680664	0.827174
1189.086304	0.833609
1192.492798	0.827509
1195.89978	0.831102
1199.307617	0.827511
1202.716064	0.83444
1206.125122	0.827718
1209.534912	0.834201
1212.945313	0.829913
1216.356445	0.836807
1219.768188	0.83026
1223.180664	0.8341
1226.59375	0.83202
1230.007568	0.837996
1233.421997	0.832659
1236.837158	0.837514
1240.25293	0.834122
1243.669434	0.840083
1247.086548	0.834673
1250.504395	0.838328
1253.922852	0.836404
1257.342041	0.839786
1260.761841	0.83725
1264.182373	0.837784
1267.603516	0.838399
1271.025391	0.841205
1274.447998	0.839914
1277.871094	0.840923
1281.294922	0.83817
1284.719482	0.842956
1288.144775	0.839439
1291.570557	0.839802
1294.997192	0.840776
1298.424316	0.842395
1301.852295	0.841526
1305.280762	0.843991
1308.710083	0.844059
1312.139893	0.846653
1315.570557	0.84682
1319.001709	0.846563
1322.433716	0.846214
1325.866333	0.847365
1329.299561	0.844955
1332.733521	0.847378
1336.168091	0.844184
1339.603271	0.84881
1343.039307	0.846839
1346.47583	0.851117
1349.913208	0.84468
1353.351196	0.852295
1356.789795	0.846455
1360.229126	0.857372
1363.669189	0.850518
1367.109741	0.859553
1370.551025	0.854052
1373.993042	0.852458
1377.435791	0.85306
1380.87915	0.836103
1384.322998	0.849379
1387.767822	0.841572
1391.213135	0.861098
1394.65918	0.847167
1398.105835	0.865693
1401.553223	0.862477
1405.001221	0.859387
1408.449951	0.863465
1411.899292	0.858882
1415.349365	0.863434
1418.800049	0.857089
1422.251465	0.86502
1425.703491	0.8557
1429.15625	0.864136
1432.609619	0.857709
1436.063721	0.865994
1439.518555	0.85849
1442.973877	0.86604
1446.430054	0.859905
1449.886841	0.867913
1453.344238	0.862531
1456.802368	0.868718
1460.261108	0.861731
1463.720581	0.869587
1467.180786	0.860523
1470.641479	0.869721
1474.103027	0.862018
1477.565186	0.872574
1481.027954	0.861058
1484.491455	0.869721
1487.955566	0.863188
1491.42041	0.874487
1494.885986	0.86544
1498.352051	0.873235
1501.81897	0.86498
1505.286377	0.873119
1508.754639	0.870754
1512.223389	0.874278
1515.692993	0.86807
1519.163208	0.875573
1522.634033	0.870353
1526.105591	0.874926
1529.577881	0.870255
1533.050659	0.87526
1536.52417	0.869656
1539.998413	0.876619
1543.473389	0.872065
1546.948975	0.867767
1550.425171	0.874497
1553.9021	0.874588
1557.379639	0.877043
1560.85791	0.872466
1564.336792	0.880171
1567.816528	0.875224
1571.296753	0.880641
1574.777588	0.870423
1578.259277	0.881217
1581.741577	0.874668
1585.224487	0.880837
1588.708252	0.865345
1592.192505	0.879986
1595.67749	0.870915
1599.163086	0.879672
1602.649414	0.861332
1606.136475	0.879357
1609.624023	0.863995
1613.112427	0.882882
1616.601318	0.862068
1620.091064	0.877745
1623.581299	0.863437
1627.072388	0.875066
1630.564087	0.862489
1634.056396	0.863272
1637.549561	0.863938
1641.043213	0.863028
1644.537476	0.866224
1648.032593	0.862448
1651.52832	0.867198
1655.024658	0.866336
1658.521729	0.868705
1662.019531	0.867978
1665.517944	0.868522
1669.016968	0.868732
1672.516846	0.868599
1676.017212	0.866589
1679.518188	0.868563
1683.019897	0.866403
1686.522461	0.864769